 #
 # Differential cross section:               MU=(1-COS(THETA))/2
 #
 #  THETA        MU          DCS          DCS        Sherman
 #  (deg)                 (cm**2/sr)   (a0**2/sr)    function
 #--------------------------------------------------------------
  0.000E+00  0.00000E+00  5.88005E-15  2.09981E+02  0.00000E+00
  1.000E-04  7.61557E-13  5.88005E-15  2.09981E+02 -6.28065E-09
  1.250E-04  1.18994E-12  5.88005E-15  2.09981E+02 -7.85082E-09
  1.500E-04  1.71346E-12  5.88005E-15  2.09981E+02 -9.42098E-09
  1.750E-04  2.33225E-12  5.88005E-15  2.09981E+02 -1.09911E-08
  2.000E-04  3.04617E-12  5.88005E-15  2.09981E+02 -1.25613E-08
  2.250E-04  3.85530E-12  5.88005E-15  2.09981E+02 -1.41315E-08
  2.500E-04  4.75964E-12  5.88005E-15  2.09981E+02 -1.57016E-08
  2.750E-04  5.75917E-12  5.88005E-15  2.09981E+02 -1.72718E-08
  3.000E-04  6.85391E-12  5.88005E-15  2.09981E+02 -1.88420E-08
  3.250E-04  8.04379E-12  5.88005E-15  2.09981E+02 -2.04121E-08
  3.500E-04  9.32893E-12  5.88005E-15  2.09981E+02 -2.19823E-08
  3.750E-04  1.07092E-11  5.88005E-15  2.09981E+02 -2.35524E-08
  4.000E-04  1.21847E-11  5.88005E-15  2.09981E+02 -2.51226E-08
  4.250E-04  1.37554E-11  5.88005E-15  2.09981E+02 -2.66928E-08
  4.500E-04  1.54213E-11  5.88005E-15  2.09981E+02 -2.82629E-08
  4.750E-04  1.71823E-11  5.88005E-15  2.09981E+02 -2.98331E-08
  5.000E-04  1.90386E-11  5.88005E-15  2.09981E+02 -3.14033E-08
  5.250E-04  2.09900E-11  5.88005E-15  2.09981E+02 -3.29734E-08
  5.500E-04  2.30367E-11  5.88005E-15  2.09981E+02 -3.45436E-08
  5.750E-04  2.51785E-11  5.88005E-15  2.09981E+02 -3.61137E-08
  6.000E-04  2.74156E-11  5.88005E-15  2.09981E+02 -3.76839E-08
  6.250E-04  2.97478E-11  5.88005E-15  2.09981E+02 -3.92541E-08
  6.500E-04  3.21752E-11  5.88005E-15  2.09981E+02 -4.08242E-08
  6.750E-04  3.46979E-11  5.88005E-15  2.09981E+02 -4.23944E-08
  7.000E-04  3.73157E-11  5.88005E-15  2.09981E+02 -4.39646E-08
  7.250E-04  4.00286E-11  5.88005E-15  2.09981E+02 -4.55347E-08
  7.500E-04  4.28368E-11  5.88005E-15  2.09980E+02 -4.71049E-08
  7.750E-04  4.57402E-11  5.88005E-15  2.09980E+02 -4.86750E-08
  8.000E-04  4.87388E-11  5.88005E-15  2.09980E+02 -5.02452E-08
  8.250E-04  5.18325E-11  5.88005E-15  2.09980E+02 -5.18154E-08
  8.500E-04  5.50215E-11  5.88005E-15  2.09980E+02 -5.33855E-08
  8.750E-04  5.83057E-11  5.88005E-15  2.09980E+02 -5.49557E-08
  9.000E-04  6.16850E-11  5.88005E-15  2.09980E+02 -5.65259E-08
  9.250E-04  6.51595E-11  5.88005E-15  2.09980E+02 -5.80960E-08
  9.500E-04  6.87293E-11  5.88005E-15  2.09980E+02 -5.96662E-08
  9.750E-04  7.23943E-11  5.88005E-15  2.09980E+02 -6.12363E-08
  1.000E-03  7.61544E-11  5.88005E-15  2.09980E+02 -6.28065E-08
  1.250E-03  1.18991E-10  5.88005E-15  2.09980E+02 -7.85081E-08
  1.500E-03  1.71347E-10  5.88005E-15  2.09980E+02 -9.42097E-08
  1.750E-03  2.33223E-10  5.88005E-15  2.09980E+02 -1.09911E-07
  2.000E-03  3.04617E-10  5.88005E-15  2.09980E+02 -1.25613E-07
  2.250E-03  3.85531E-10  5.88005E-15  2.09980E+02 -1.41314E-07
  2.500E-03  4.75965E-10  5.88005E-15  2.09980E+02 -1.57016E-07
  2.750E-03  5.75917E-10  5.88004E-15  2.09980E+02 -1.72717E-07
  3.000E-03  6.85389E-10  5.88004E-15  2.09980E+02 -1.88419E-07
  3.250E-03  8.04380E-10  5.88004E-15  2.09980E+02 -2.04120E-07
  3.500E-03  9.32891E-10  5.88004E-15  2.09980E+02 -2.19821E-07
  3.750E-03  1.07092E-09  5.88004E-15  2.09980E+02 -2.35523E-07
  4.000E-03  1.21847E-09  5.88003E-15  2.09980E+02 -2.51224E-07
  4.250E-03  1.37554E-09  5.88003E-15  2.09980E+02 -2.66925E-07
  4.500E-03  1.54213E-09  5.88003E-15  2.09980E+02 -2.82626E-07
  4.750E-03  1.71823E-09  5.88003E-15  2.09980E+02 -2.98327E-07
  5.000E-03  1.90386E-09  5.88002E-15  2.09979E+02 -3.14028E-07
  5.250E-03  2.09900E-09  5.88002E-15  2.09979E+02 -3.29729E-07
  5.500E-03  2.30367E-09  5.88002E-15  2.09979E+02 -3.45430E-07
  5.750E-03  2.51785E-09  5.88001E-15  2.09979E+02 -3.61131E-07
  6.000E-03  2.74156E-09  5.88001E-15  2.09979E+02 -3.76831E-07
  6.250E-03  2.97478E-09  5.88001E-15  2.09979E+02 -3.92532E-07
  6.500E-03  3.21752E-09  5.88000E-15  2.09979E+02 -4.08232E-07
  6.750E-03  3.46978E-09  5.88000E-15  2.09979E+02 -4.23933E-07
  7.000E-03  3.73156E-09  5.87999E-15  2.09978E+02 -4.39633E-07
  7.250E-03  4.00286E-09  5.87999E-15  2.09978E+02 -4.55334E-07
  7.500E-03  4.28368E-09  5.87998E-15  2.09978E+02 -4.71034E-07
  7.750E-03  4.57402E-09  5.87998E-15  2.09978E+02 -4.86734E-07
  8.000E-03  4.87388E-09  5.87998E-15  2.09978E+02 -5.02434E-07
  8.250E-03  5.18326E-09  5.87997E-15  2.09978E+02 -5.18134E-07
  8.500E-03  5.50215E-09  5.87997E-15  2.09977E+02 -5.33833E-07
  8.750E-03  5.83057E-09  5.87996E-15  2.09977E+02 -5.49533E-07
  9.000E-03  6.16850E-09  5.87995E-15  2.09977E+02 -5.65232E-07
  9.250E-03  6.51596E-09  5.87995E-15  2.09977E+02 -5.80932E-07
  9.500E-03  6.87293E-09  5.87994E-15  2.09977E+02 -5.96631E-07
  9.750E-03  7.23942E-09  5.87994E-15  2.09976E+02 -6.12330E-07
  1.000E-02  7.61544E-09  5.87993E-15  2.09976E+02 -6.28029E-07
  1.250E-02  1.18991E-08  5.87986E-15  2.09974E+02 -7.85011E-07
  1.500E-02  1.71347E-08  5.87978E-15  2.09971E+02 -9.41976E-07
  1.750E-02  2.33223E-08  5.87968E-15  2.09967E+02 -1.09892E-06
  2.000E-02  3.04617E-08  5.87956E-15  2.09963E+02 -1.25584E-06
  2.250E-02  3.85531E-08  5.87943E-15  2.09958E+02 -1.41273E-06
  2.500E-02  4.75965E-08  5.87929E-15  2.09953E+02 -1.56960E-06
  2.750E-02  5.75917E-08  5.87913E-15  2.09947E+02 -1.72643E-06
  3.000E-02  6.85389E-08  5.87895E-15  2.09941E+02 -1.88322E-06
  3.250E-02  8.04380E-08  5.87876E-15  2.09934E+02 -2.03997E-06
  3.500E-02  9.32891E-08  5.87855E-15  2.09927E+02 -2.19667E-06
  3.750E-02  1.07092E-07  5.87833E-15  2.09919E+02 -2.35333E-06
  4.000E-02  1.21847E-07  5.87810E-15  2.09911E+02 -2.50994E-06
  4.250E-02  1.37554E-07  5.87784E-15  2.09902E+02 -2.66650E-06
  4.500E-02  1.54213E-07  5.87758E-15  2.09892E+02 -2.82299E-06
  4.750E-02  1.71823E-07  5.87730E-15  2.09882E+02 -2.97943E-06
  5.000E-02  1.90386E-07  5.87700E-15  2.09871E+02 -3.13580E-06
  5.250E-02  2.09900E-07  5.87669E-15  2.09860E+02 -3.29210E-06
  5.500E-02  2.30367E-07  5.87636E-15  2.09849E+02 -3.44834E-06
  5.750E-02  2.51785E-07  5.87602E-15  2.09836E+02 -3.60450E-06
  6.000E-02  2.74156E-07  5.87566E-15  2.09824E+02 -3.76058E-06
  6.250E-02  2.97478E-07  5.87529E-15  2.09810E+02 -3.91658E-06
  6.500E-02  3.21752E-07  5.87490E-15  2.09796E+02 -4.07249E-06
  6.750E-02  3.46978E-07  5.87450E-15  2.09782E+02 -4.22832E-06
  7.000E-02  3.73156E-07  5.87408E-15  2.09767E+02 -4.38406E-06
  7.250E-02  4.00286E-07  5.87365E-15  2.09752E+02 -4.53971E-06
  7.500E-02  4.28368E-07  5.87320E-15  2.09736E+02 -4.69525E-06
  7.750E-02  4.57402E-07  5.87274E-15  2.09719E+02 -4.85070E-06
  8.000E-02  4.87388E-07  5.87227E-15  2.09702E+02 -5.00604E-06
  8.250E-02  5.18325E-07  5.87178E-15  2.09685E+02 -5.16128E-06
  8.500E-02  5.50215E-07  5.87127E-15  2.09667E+02 -5.31640E-06
  8.750E-02  5.83057E-07  5.87075E-15  2.09648E+02 -5.47142E-06
  9.000E-02  6.16850E-07  5.87022E-15  2.09629E+02 -5.62631E-06
  9.250E-02  6.51596E-07  5.86967E-15  2.09610E+02 -5.78109E-06
  9.500E-02  6.87293E-07  5.86910E-15  2.09590E+02 -5.93574E-06
  9.750E-02  7.23942E-07  5.86853E-15  2.09569E+02 -6.09027E-06
  1.000E-01  7.61543E-07  5.86793E-15  2.09548E+02 -6.24467E-06
  1.250E-01  1.18991E-06  5.86124E-15  2.09309E+02 -7.78085E-06
  1.500E-01  1.71347E-06  5.85316E-15  2.09020E+02 -9.30077E-06
  1.750E-01  2.33223E-06  5.84378E-15  2.08685E+02 -1.08015E-05
  2.000E-01  3.04617E-06  5.83316E-15  2.08306E+02 -1.22804E-05
  2.250E-01  3.85531E-06  5.82138E-15  2.07885E+02 -1.37350E-05
  2.500E-01  4.75964E-06  5.80853E-15  2.07426E+02 -1.51630E-05
  2.750E-01  5.75916E-06  5.79471E-15  2.06933E+02 -1.65625E-05
  3.000E-01  6.85388E-06  5.78001E-15  2.06408E+02 -1.79317E-05
  3.250E-01  8.04378E-06  5.76452E-15  2.05855E+02 -1.92692E-05
  3.500E-01  9.32888E-06  5.74836E-15  2.05278E+02 -2.05738E-05
  3.750E-01  1.07092E-05  5.73161E-15  2.04679E+02 -2.18446E-05
  4.000E-01  1.21846E-05  5.71436E-15  2.04064E+02 -2.30810E-05
  4.250E-01  1.37553E-05  5.69672E-15  2.03434E+02 -2.42826E-05
  4.500E-01  1.54212E-05  5.67877E-15  2.02793E+02 -2.54492E-05
  4.750E-01  1.71822E-05  5.66059E-15  2.02143E+02 -2.65809E-05
  5.000E-01  1.90385E-05  5.64226E-15  2.01489E+02 -2.76778E-05
  5.250E-01  2.09899E-05  5.62384E-15  2.00831E+02 -2.87405E-05
  5.500E-01  2.30365E-05  5.60539E-15  2.00172E+02 -2.97694E-05
  5.750E-01  2.51783E-05  5.58698E-15  1.99515E+02 -3.07650E-05
  6.000E-01  2.74153E-05  5.56864E-15  1.98860E+02 -3.17281E-05
  6.250E-01  2.97475E-05  5.55041E-15  1.98209E+02 -3.26593E-05
  6.500E-01  3.21749E-05  5.53233E-15  1.97563E+02 -3.35592E-05
  6.750E-01  3.46974E-05  5.51442E-15  1.96924E+02 -3.44286E-05
  7.000E-01  3.73152E-05  5.49669E-15  1.96290E+02 -3.52679E-05
  7.250E-01  4.00281E-05  5.47915E-15  1.95664E+02 -3.60776E-05
  7.500E-01  4.28362E-05  5.46181E-15  1.95045E+02 -3.68580E-05
  7.750E-01  4.57395E-05  5.44467E-15  1.94433E+02 -3.76095E-05
  8.000E-01  4.87380E-05  5.42771E-15  1.93827E+02 -3.83321E-05
  8.250E-01  5.18317E-05  5.41094E-15  1.93228E+02 -3.90258E-05
  8.500E-01  5.50205E-05  5.39433E-15  1.92635E+02 -3.96906E-05
  8.750E-01  5.83045E-05  5.37788E-15  1.92048E+02 -4.03260E-05
  9.000E-01  6.16838E-05  5.36157E-15  1.91465E+02 -4.09317E-05
  9.250E-01  6.51582E-05  5.34538E-15  1.90887E+02 -4.15074E-05
  9.500E-01  6.87277E-05  5.32930E-15  1.90313E+02 -4.20523E-05
  9.750E-01  7.23925E-05  5.31330E-15  1.89741E+02 -4.25660E-05
  1.000E+00  7.61524E-05  5.29737E-15  1.89173E+02 -4.30476E-05
  1.100E+00  9.21439E-05  5.23414E-15  1.86915E+02 -4.46412E-05
  1.200E+00  1.09658E-04  5.17127E-15  1.84670E+02 -4.56735E-05
  1.300E+00  1.28695E-04  5.10867E-15  1.82434E+02 -4.61219E-05
  1.400E+00  1.49255E-04  5.04662E-15  1.80218E+02 -4.59853E-05
  1.500E+00  1.71338E-04  4.98554E-15  1.78037E+02 -4.52778E-05
  1.600E+00  1.94942E-04  4.92572E-15  1.75900E+02 -4.40142E-05
  1.700E+00  2.20070E-04  4.86720E-15  1.73811E+02 -4.21971E-05
  1.800E+00  2.46720E-04  4.80981E-15  1.71762E+02 -3.98111E-05
  1.900E+00  2.74892E-04  4.75331E-15  1.69744E+02 -3.68290E-05
  2.000E+00  3.04586E-04  4.69748E-15  1.67750E+02 -3.32229E-05
  2.100E+00  3.35803E-04  4.64224E-15  1.65778E+02 -2.89756E-05
  2.200E+00  3.68542E-04  4.58766E-15  1.63828E+02 -2.40852E-05
  2.300E+00  4.02802E-04  4.53386E-15  1.61907E+02 -1.85609E-05
  2.400E+00  4.38585E-04  4.48095E-15  1.60018E+02 -1.24122E-05
  2.500E+00  4.75889E-04  4.42896E-15  1.58161E+02 -5.63924E-06
  2.600E+00  5.14715E-04  4.37783E-15  1.56335E+02  1.77118E-06
  2.700E+00  5.55063E-04  4.32744E-15  1.54536E+02  9.84186E-06
  2.800E+00  5.96931E-04  4.27768E-15  1.52759E+02  1.85958E-05
  2.900E+00  6.40321E-04  4.22852E-15  1.51003E+02  2.80473E-05
  3.000E+00  6.85233E-04  4.17996E-15  1.49269E+02  3.81980E-05
  3.100E+00  7.31665E-04  4.13205E-15  1.47558E+02  4.90412E-05
  3.200E+00  7.79618E-04  4.08484E-15  1.45872E+02  6.05698E-05
  3.300E+00  8.29092E-04  4.03835E-15  1.44212E+02  7.27849E-05
  3.400E+00  8.80086E-04  3.99254E-15  1.42576E+02  8.56987E-05
  3.500E+00  9.32601E-04  3.94736E-15  1.40963E+02  9.93316E-05
  3.600E+00  9.86636E-04  3.90274E-15  1.39369E+02  1.13704E-04
  3.700E+00  1.04219E-03  3.85865E-15  1.37795E+02  1.28827E-04
  3.800E+00  1.09927E-03  3.81508E-15  1.36239E+02  1.44703E-04
  3.900E+00  1.15786E-03  3.77207E-15  1.34703E+02  1.61326E-04
  4.000E+00  1.21797E-03  3.72962E-15  1.33187E+02  1.78690E-04
  4.100E+00  1.27961E-03  3.68776E-15  1.31692E+02  1.96799E-04
  4.200E+00  1.34276E-03  3.64647E-15  1.30218E+02  2.15664E-04
  4.300E+00  1.40743E-03  3.60570E-15  1.28762E+02  2.35304E-04
  4.400E+00  1.47362E-03  3.56541E-15  1.27323E+02  2.55737E-04
  4.500E+00  1.54133E-03  3.52559E-15  1.25901E+02  2.76975E-04
  4.600E+00  1.61056E-03  3.48623E-15  1.24495E+02  2.99018E-04
  4.700E+00  1.68131E-03  3.44733E-15  1.23106E+02  3.21860E-04
  4.800E+00  1.75357E-03  3.40891E-15  1.21734E+02  3.45498E-04
  4.900E+00  1.82735E-03  3.37098E-15  1.20380E+02  3.69936E-04
  5.000E+00  1.90265E-03  3.33352E-15  1.19042E+02  3.95185E-04
  5.100E+00  1.97947E-03  3.29650E-15  1.17720E+02  4.21266E-04
  5.200E+00  2.05780E-03  3.25991E-15  1.16413E+02  4.48196E-04
  5.300E+00  2.13765E-03  3.22372E-15  1.15121E+02  4.75985E-04
  5.400E+00  2.21902E-03  3.18792E-15  1.13843E+02  5.04633E-04
  5.500E+00  2.30190E-03  3.15253E-15  1.12579E+02  5.34136E-04
  5.600E+00  2.38630E-03  3.11754E-15  1.11329E+02  5.64490E-04
  5.700E+00  2.47222E-03  3.08296E-15  1.10095E+02  5.95700E-04
  5.800E+00  2.55965E-03  3.04879E-15  1.08874E+02  6.27780E-04
  5.900E+00  2.64859E-03  3.01500E-15  1.07667E+02  6.60751E-04
  6.000E+00  2.73905E-03  2.98157E-15  1.06474E+02  6.94629E-04
  6.100E+00  2.83103E-03  2.94850E-15  1.05293E+02  7.29423E-04
  6.200E+00  2.92452E-03  2.91577E-15  1.04124E+02  7.65135E-04
  6.300E+00  3.01952E-03  2.88340E-15  1.02968E+02  8.01761E-04
  6.400E+00  3.11604E-03  2.85137E-15  1.01824E+02  8.39297E-04
  6.500E+00  3.21407E-03  2.81970E-15  1.00693E+02  8.77752E-04
  6.600E+00  3.31362E-03  2.78837E-15  9.95746E+01  9.17140E-04
  6.700E+00  3.41468E-03  2.75738E-15  9.84679E+01  9.57483E-04
  6.800E+00  3.51725E-03  2.72671E-15  9.73727E+01  9.98797E-04
  6.900E+00  3.62133E-03  2.69636E-15  9.62887E+01  1.04109E-03
  7.000E+00  3.72692E-03  2.66631E-15  9.52156E+01  1.08437E-03
  7.100E+00  3.83403E-03  2.63656E-15  9.41534E+01  1.12863E-03
  7.200E+00  3.94265E-03  2.60713E-15  9.31023E+01  1.17386E-03
  7.300E+00  4.05278E-03  2.57801E-15  9.20623E+01  1.22008E-03
  7.400E+00  4.16442E-03  2.54919E-15  9.10331E+01  1.26730E-03
  7.500E+00  4.27757E-03  2.52066E-15  9.00146E+01  1.31554E-03
  7.600E+00  4.39223E-03  2.49243E-15  8.90063E+01  1.36483E-03
  7.700E+00  4.50840E-03  2.46447E-15  8.80079E+01  1.41518E-03
  7.800E+00  4.62608E-03  2.43679E-15  8.70194E+01  1.46658E-03
  7.900E+00  4.74527E-03  2.40938E-15  8.60406E+01  1.51903E-03
  8.000E+00  4.86597E-03  2.38225E-15  8.50717E+01  1.57254E-03
  8.100E+00  4.98817E-03  2.35539E-15  8.41126E+01  1.62711E-03
  8.200E+00  5.11188E-03  2.32881E-15  8.31632E+01  1.68276E-03
  8.300E+00  5.23711E-03  2.30249E-15  8.22233E+01  1.73952E-03
  8.400E+00  5.36383E-03  2.27643E-15  8.12927E+01  1.79741E-03
  8.500E+00  5.49207E-03  2.25062E-15  8.03711E+01  1.85643E-03
  8.600E+00  5.62181E-03  2.22506E-15  7.94584E+01  1.91660E-03
  8.700E+00  5.75306E-03  2.19975E-15  7.85545E+01  1.97790E-03
  8.800E+00  5.88581E-03  2.17469E-15  7.76596E+01  2.04034E-03
  8.900E+00  6.02007E-03  2.14988E-15  7.67736E+01  2.10394E-03
  9.000E+00  6.15583E-03  2.12531E-15  7.58963E+01  2.16870E-03
  9.100E+00  6.29310E-03  2.10099E-15  7.50277E+01  2.23467E-03
  9.200E+00  6.43187E-03  2.07690E-15  7.41676E+01  2.30186E-03
  9.300E+00  6.57214E-03  2.05305E-15  7.33158E+01  2.37028E-03
  9.400E+00  6.71392E-03  2.02943E-15  7.24721E+01  2.43995E-03
  9.500E+00  6.85720E-03  2.00603E-15  7.16366E+01  2.51084E-03
  9.600E+00  7.00198E-03  1.98286E-15  7.08093E+01  2.58297E-03
  9.700E+00  7.14827E-03  1.95992E-15  6.99901E+01  2.65635E-03
  9.800E+00  7.29605E-03  1.93721E-15  6.91790E+01  2.73101E-03
  9.900E+00  7.44534E-03  1.91472E-15  6.83759E+01  2.80697E-03
  1.000E+01  7.59612E-03  1.89245E-15  6.75806E+01  2.88427E-03
  1.025E+01  7.97965E-03  1.83771E-15  6.56258E+01  3.08340E-03
  1.050E+01  8.37255E-03  1.78429E-15  6.37183E+01  3.29094E-03
  1.075E+01  8.77480E-03  1.73219E-15  6.18577E+01  3.50720E-03
  1.100E+01  9.18641E-03  1.68136E-15  6.00424E+01  3.73255E-03
  1.125E+01  9.60736E-03  1.63177E-15  5.82716E+01  3.96708E-03
  1.150E+01  1.00376E-02  1.58341E-15  5.65448E+01  4.21102E-03
  1.175E+01  1.04773E-02  1.53626E-15  5.48608E+01  4.46484E-03
  1.200E+01  1.09262E-02  1.49028E-15  5.32188E+01  4.72869E-03
  1.225E+01  1.13844E-02  1.44546E-15  5.16183E+01  5.00275E-03
  1.250E+01  1.18520E-02  1.40178E-15  5.00584E+01  5.28754E-03
  1.275E+01  1.23288E-02  1.35921E-15  4.85383E+01  5.58329E-03
  1.300E+01  1.28150E-02  1.31774E-15  4.70574E+01  5.89015E-03
  1.325E+01  1.33104E-02  1.27735E-15  4.56151E+01  6.20864E-03
  1.350E+01  1.38150E-02  1.23802E-15  4.42105E+01  6.53911E-03
  1.375E+01  1.43290E-02  1.19973E-15  4.28431E+01  6.88166E-03
  1.400E+01  1.48521E-02  1.16246E-15  4.15123E+01  7.23679E-03
  1.425E+01  1.53845E-02  1.12620E-15  4.02174E+01  7.60498E-03
  1.450E+01  1.59262E-02  1.09092E-15  3.89576E+01  7.98632E-03
  1.475E+01  1.64770E-02  1.05662E-15  3.77326E+01  8.38125E-03
  1.500E+01  1.70371E-02  1.02326E-15  3.65414E+01  8.79038E-03
  1.525E+01  1.76063E-02  9.90844E-16  3.53837E+01  9.21380E-03
  1.550E+01  1.81848E-02  9.59340E-16  3.42587E+01  9.65188E-03
  1.575E+01  1.87724E-02  9.28736E-16  3.31658E+01  1.01053E-02
  1.600E+01  1.93692E-02  8.99013E-16  3.21043E+01  1.05743E-02
  1.625E+01  1.99751E-02  8.70155E-16  3.10738E+01  1.10590E-02
  1.650E+01  2.05901E-02  8.42144E-16  3.00735E+01  1.15602E-02
  1.675E+01  2.12143E-02  8.14963E-16  2.91028E+01  1.20782E-02
  1.700E+01  2.18476E-02  7.88594E-16  2.81612E+01  1.26132E-02
  1.725E+01  2.24900E-02  7.63021E-16  2.72480E+01  1.31658E-02
  1.750E+01  2.31415E-02  7.38226E-16  2.63625E+01  1.37364E-02
  1.775E+01  2.38021E-02  7.14191E-16  2.55042E+01  1.43252E-02
  1.800E+01  2.44717E-02  6.90900E-16  2.46725E+01  1.49327E-02
  1.825E+01  2.51504E-02  6.68336E-16  2.38667E+01  1.55597E-02
  1.850E+01  2.58382E-02  6.46481E-16  2.30863E+01  1.62059E-02
  1.875E+01  2.65349E-02  6.25319E-16  2.23305E+01  1.68719E-02
  1.900E+01  2.72407E-02  6.04832E-16  2.15989E+01  1.75586E-02
  1.925E+01  2.79555E-02  5.85004E-16  2.08909E+01  1.82658E-02
  1.950E+01  2.86793E-02  5.65819E-16  2.02058E+01  1.89938E-02
  1.975E+01  2.94120E-02  5.47259E-16  1.95430E+01  1.97435E-02
  2.000E+01  3.01537E-02  5.29309E-16  1.89020E+01  2.05150E-02
  2.025E+01  3.09043E-02  5.11953E-16  1.82822E+01  2.13082E-02
  2.050E+01  3.16639E-02  4.95173E-16  1.76830E+01  2.21241E-02
  2.075E+01  3.24324E-02  4.78955E-16  1.71038E+01  2.29628E-02
  2.100E+01  3.32098E-02  4.63284E-16  1.65442E+01  2.38241E-02
  2.125E+01  3.39961E-02  4.48142E-16  1.60034E+01  2.47088E-02
  2.150E+01  3.47912E-02  4.33515E-16  1.54811E+01  2.56172E-02
  2.175E+01  3.55952E-02  4.19389E-16  1.49766E+01  2.65490E-02
  2.200E+01  3.64081E-02  4.05747E-16  1.44895E+01  2.75047E-02
  2.225E+01  3.72297E-02  3.92576E-16  1.40191E+01  2.84849E-02
  2.250E+01  3.80602E-02  3.79861E-16  1.35651E+01  2.94891E-02
  2.275E+01  3.88995E-02  3.67589E-16  1.31268E+01  3.05173E-02
  2.300E+01  3.97476E-02  3.55745E-16  1.27039E+01  3.15706E-02
  2.325E+01  4.06044E-02  3.44315E-16  1.22957E+01  3.26483E-02
  2.350E+01  4.14700E-02  3.33288E-16  1.19019E+01  3.37501E-02
  2.375E+01  4.23443E-02  3.22649E-16  1.15220E+01  3.48770E-02
  2.400E+01  4.32273E-02  3.12386E-16  1.11555E+01  3.60285E-02
  2.425E+01  4.41190E-02  3.02487E-16  1.08020E+01  3.72040E-02
  2.450E+01  4.50194E-02  2.92939E-16  1.04610E+01  3.84043E-02
  2.475E+01  4.59284E-02  2.83730E-16  1.01322E+01  3.96291E-02
  2.500E+01  4.68461E-02  2.74850E-16  9.81507E+00  4.08775E-02
  2.550E+01  4.87074E-02  2.58028E-16  9.21435E+00  4.34464E-02
  2.600E+01  5.06030E-02  2.42387E-16  8.65580E+00  4.61081E-02
  2.650E+01  5.25328E-02  2.27843E-16  8.13641E+00  4.88615E-02
  2.700E+01  5.44967E-02  2.14320E-16  7.65349E+00  5.17018E-02
  2.750E+01  5.64946E-02  2.01742E-16  7.20434E+00  5.46256E-02
  2.800E+01  5.85262E-02  1.90043E-16  6.78654E+00  5.76292E-02
  2.850E+01  6.05914E-02  1.79156E-16  6.39777E+00  6.07057E-02
  2.900E+01  6.26901E-02  1.69020E-16  6.03583E+00  6.38515E-02
  2.950E+01  6.48222E-02  1.59581E-16  5.69875E+00  6.70593E-02
  3.000E+01  6.69873E-02  1.50784E-16  5.38458E+00  7.03224E-02
  3.050E+01  6.91854E-02  1.42579E-16  5.09160E+00  7.36353E-02
  3.100E+01  7.14163E-02  1.34922E-16  4.81817E+00  7.69887E-02
