 #  Scattering field.
 #  All quantities in atomic units (a.u.), unless otherwise indicated.
 #  Z =  80, NELEC =  80,   projectile: electron
 #  Kinetic energy = 3.67493E+01 a.u. = 1.00000E+03 eV
 #
 #   i       r           r*V         r*Vst        r*Vex       r*Vpol       r*Wabs        rho_e
 #------------------------------------------------------------------------------------------------
     1  0.00000E+00 -0.00000E+00 -0.00000E+00  0.00000E+00 -0.00000E+00  0.00000E+00  2.41744E+06
     2  1.19557E-06 -1.15496E+00 -1.15495E+00 -9.39888E-06 -8.67633E-08 -4.04173E-05  2.41744E+06
     3  2.41534E-06 -2.33304E+00 -2.33302E+00 -1.88172E-05 -1.75282E-07 -8.12887E-05  2.39546E+06
     4  3.65979E-06 -3.53447E+00 -3.53444E+00 -2.82922E-05 -2.65592E-07 -1.22694E-04  2.37655E+06
     5  4.92941E-06 -4.75941E+00 -4.75937E+00 -3.78600E-05 -3.57730E-07 -1.64712E-04  2.36053E+06
     6  6.22473E-06 -6.00804E+00 -6.00799E+00 -4.75550E-05 -4.51731E-07 -2.07420E-04  2.34722E+06
     7  7.54626E-06 -7.28048E+00 -7.28042E+00 -5.74101E-05 -5.47635E-07 -2.50887E-04  2.33642E+06
     8  8.89453E-06 -8.57684E+00 -8.57677E+00 -6.74555E-05 -6.45480E-07 -2.95190E-04  2.32791E+06
     9  1.02701E-05 -9.89718E+00 -9.89710E+00 -7.77183E-05 -7.45304E-07 -3.40366E-04  2.32142E+06
    10  1.16735E-05 -1.12415E+01 -1.12415E+01 -8.82217E-05 -8.47148E-07 -3.86487E-04  2.31669E+06
    11  1.31052E-05 -1.26099E+01 -1.26098E+01 -9.89835E-05 -9.51053E-07 -4.33586E-04  2.31341E+06
    12  1.45660E-05 -1.40022E+01 -1.40021E+01 -1.10016E-04 -1.05706E-06 -4.81683E-04  2.31121E+06
    13  1.60563E-05 -1.54184E+01 -1.54183E+01 -1.21321E-04 -1.16521E-06 -5.30787E-04  2.30969E+06
    14  1.75768E-05 -1.68583E+01 -1.68582E+01 -1.32895E-04 -1.27555E-06 -5.80883E-04  2.30840E+06
    15  1.91280E-05 -1.83217E+01 -1.83216E+01 -1.44729E-04 -1.38813E-06 -6.31950E-04  2.30701E+06
    16  2.07106E-05 -1.98083E+01 -1.98082E+01 -1.56830E-04 -1.50298E-06 -6.83998E-04  2.30547E+06
    17  2.23252E-05 -2.13178E+01 -2.13176E+01 -1.69209E-04 -1.62015E-06 -7.37042E-04  2.30377E+06
    18  2.39726E-05 -2.28498E+01 -2.28496E+01 -1.81874E-04 -1.73970E-06 -7.91094E-04  2.30192E+06
    19  2.56532E-05 -2.44037E+01 -2.44035E+01 -1.94836E-04 -1.86166E-06 -8.46168E-04  2.29990E+06
    20  2.73678E-05 -2.59790E+01 -2.59788E+01 -2.08106E-04 -1.98610E-06 -9.02277E-04  2.29770E+06
    21  2.91172E-05 -2.75750E+01 -2.75748E+01 -2.21697E-04 -2.11305E-06 -9.59432E-04  2.29532E+06
    22  3.09019E-05 -2.91910E+01 -2.91907E+01 -2.35620E-04 -2.24257E-06 -1.01765E-03  2.29275E+06
    23  3.27228E-05 -3.08259E+01 -3.08257E+01 -2.49890E-04 -2.37471E-06 -1.07693E-03  2.28998E+06
    24  3.45805E-05 -3.24790E+01 -3.24787E+01 -2.64520E-04 -2.50952E-06 -1.13729E-03  2.28700E+06
    25  3.64758E-05 -3.41489E+01 -3.41486E+01 -2.79527E-04 -2.64706E-06 -1.19875E-03  2.28380E+06
    26  3.84094E-05 -3.58344E+01 -3.58341E+01 -2.94929E-04 -2.78739E-06 -1.26131E-03  2.28039E+06
    27  4.03822E-05 -3.75341E+01 -3.75338E+01 -3.10742E-04 -2.93055E-06 -1.32499E-03  2.27674E+06
    28  4.23949E-05 -3.92464E+01 -3.92460E+01 -3.26987E-04 -3.07661E-06 -1.38978E-03  2.27285E+06
    29  4.44483E-05 -4.09695E+01 -4.09691E+01 -3.43685E-04 -3.22563E-06 -1.45571E-03  2.26871E+06
    30  4.65432E-05 -4.27015E+01 -4.27011E+01 -3.60860E-04 -3.37766E-06 -1.52277E-03  2.26431E+06
    31  4.86806E-05 -4.44402E+01 -4.44398E+01 -3.78537E-04 -3.53277E-06 -1.59098E-03  2.25965E+06
    32  5.08612E-05 -4.61832E+01 -4.61828E+01 -3.96745E-04 -3.69102E-06 -1.66034E-03  2.25471E+06
    33  5.30859E-05 -4.79281E+01 -4.79276E+01 -4.15513E-04 -3.85247E-06 -1.73086E-03  2.24949E+06
    34  5.53556E-05 -4.96718E+01 -4.96713E+01 -4.34875E-04 -4.01718E-06 -1.80254E-03  2.24398E+06
    35  5.76713E-05 -5.14113E+01 -5.14108E+01 -4.54869E-04 -4.18523E-06 -1.87538E-03  2.23817E+06
    36  6.00338E-05 -5.31432E+01 -5.31427E+01 -4.75534E-04 -4.35668E-06 -1.94940E-03  2.23206E+06
    37  6.24441E-05 -5.48638E+01 -5.48633E+01 -4.96915E-04 -4.53160E-06 -2.02458E-03  2.22563E+06
    38  6.49032E-05 -5.65692E+01 -5.65686E+01 -5.19062E-04 -4.71005E-06 -2.10094E-03  2.21889E+06
    39  6.74121E-05 -5.82548E+01 -5.82543E+01 -5.42030E-04 -4.89212E-06 -2.17847E-03  2.21181E+06
    40  6.99717E-05 -5.99161E+01 -5.99156E+01 -5.65880E-04 -5.07787E-06 -2.25717E-03  2.20441E+06
    41  7.25831E-05 -6.15480E+01 -6.15474E+01 -5.90681E-04 -5.26738E-06 -2.33704E-03  2.19667E+06
    42  7.52473E-05 -6.31450E+01 -6.31444E+01 -6.16507E-04 -5.46073E-06 -2.41807E-03  2.18859E+06
    43  7.79655E-05 -6.47014E+01 -6.47007E+01 -6.43445E-04 -5.65799E-06 -2.50027E-03  2.18017E+06
    44  8.07386E-05 -6.62109E+01 -6.62102E+01 -6.71587E-04 -5.85924E-06 -2.58363E-03  2.17139E+06
    45  8.35679E-05 -6.76669E+01 -6.76662E+01 -7.01040E-04 -6.06456E-06 -2.66813E-03  2.16227E+06
    46  8.64544E-05 -6.90627E+01 -6.90620E+01 -7.31922E-04 -6.27403E-06 -2.75378E-03  2.15280E+06
    47  8.93993E-05 -7.03912E+01 -7.03904E+01 -7.64361E-04 -6.48775E-06 -2.84057E-03  2.14298E+06
    48  9.24038E-05 -7.16451E+01 -7.16443E+01 -7.98502E-04 -6.70579E-06 -2.92848E-03  2.13281E+06
    49  9.54691E-05 -7.28173E+01 -7.28165E+01 -8.34503E-04 -6.92824E-06 -3.01752E-03  2.12230E+06
    50  9.85965E-05 -7.39011E+01 -7.39003E+01 -8.72533E-04 -7.15519E-06 -3.10767E-03  2.11145E+06
    51  1.01787E-04 -7.48904E+01 -7.48895E+01 -9.12773E-04 -7.38673E-06 -3.19892E-03  2.10027E+06
    52  1.05042E-04 -7.57801E+01 -7.57791E+01 -9.55410E-04 -7.62296E-06 -3.29126E-03  2.08876E+06
    53  1.08363E-04 -7.65668E+01 -7.65658E+01 -1.00063E-03 -7.86397E-06 -3.38468E-03  2.07694E+06
    54  1.11751E-04 -7.72495E+01 -7.72484E+01 -1.04862E-03 -8.10985E-06 -3.47918E-03  2.06481E+06
    55  1.15208E-04 -7.78296E+01 -7.78285E+01 -1.09953E-03 -8.36071E-06 -3.57476E-03  2.05239E+06
    56  1.18735E-04 -7.83118E+01 -7.83106E+01 -1.15351E-03 -8.61665E-06 -3.67142E-03  2.03970E+06
    57  1.22333E-04 -7.87033E+01 -7.87020E+01 -1.21065E-03 -8.87777E-06 -3.76915E-03  2.02674E+06
    58  1.26004E-04 -7.90137E+01 -7.90125E+01 -1.27101E-03 -9.14416E-06 -3.86797E-03  2.01354E+06
    59  1.29749E-04 -7.92544E+01 -7.92531E+01 -1.33464E-03 -9.41595E-06 -3.96789E-03  2.00011E+06
    60  1.33570E-04 -7.94371E+01 -7.94356E+01 -1.40153E-03 -9.69324E-06 -4.06894E-03  1.98648E+06
    61  1.37468E-04 -7.95728E+01 -7.95713E+01 -1.47169E-03 -9.97614E-06 -4.17115E-03  1.97266E+06
    62  1.41446E-04 -7.96718E+01 -7.96703E+01 -1.54510E-03 -1.02648E-05 -4.27446E-03  1.95867E+06
    63  1.45503E-04 -7.97427E+01 -7.97411E+01 -1.62177E-03 -1.05592E-05 -4.37897E-03  1.94453E+06
    64  1.49643E-04 -7.97926E+01 -7.97909E+01 -1.70171E-03 -1.08596E-05 -4.48468E-03  1.93026E+06
    65  1.53866E-04 -7.98269E+01 -7.98251E+01 -1.78494E-03 -1.11661E-05 -4.59161E-03  1.91588E+06
    66  1.58175E-04 -7.98501E+01 -7.98482E+01 -1.87151E-03 -1.14788E-05 -4.69978E-03  1.90140E+06
    67  1.62571E-04 -7.98652E+01 -7.98632E+01 -1.96147E-03 -1.17979E-05 -4.80921E-03  1.88683E+06
    68  1.67057E-04 -7.98746E+01 -7.98726E+01 -2.05489E-03 -1.21234E-05 -4.91993E-03  1.87221E+06
    69  1.71632E-04 -7.98801E+01 -7.98779E+01 -2.15184E-03 -1.24554E-05 -5.03195E-03  1.85752E+06
    70  1.76301E-04 -7.98828E+01 -7.98805E+01 -2.25241E-03 -1.27942E-05 -5.14528E-03  1.84280E+06
    71  1.81064E-04 -7.98836E+01 -7.98812E+01 -2.35671E-03 -1.31399E-05 -5.25996E-03  1.82805E+06
    72  1.85923E-04 -7.98831E+01 -7.98806E+01 -2.46484E-03 -1.34925E-05 -5.37600E-03  1.81328E+06
    73  1.90880E-04 -7.98817E+01 -7.98791E+01 -2.57690E-03 -1.38523E-05 -5.49341E-03  1.79850E+06
    74  1.95938E-04 -7.98797E+01 -7.98769E+01 -2.69302E-03 -1.42193E-05 -5.61222E-03  1.78372E+06
    75  2.01099E-04 -7.98772E+01 -7.98744E+01 -2.81333E-03 -1.45938E-05 -5.73245E-03  1.76895E+06
    76  2.06363E-04 -7.98745E+01 -7.98715E+01 -2.93794E-03 -1.49759E-05 -5.85412E-03  1.75420E+06
    77  2.11734E-04 -7.98715E+01 -7.98685E+01 -3.06700E-03 -1.53657E-05 -5.97720E-03  1.73947E+06
    78  2.17214E-04 -7.98684E+01 -7.98652E+01 -3.20065E-03 -1.57633E-05 -6.10177E-03  1.72477E+06
    79  2.22805E-04 -7.98652E+01 -7.98619E+01 -3.33902E-03 -1.61691E-05 -6.22781E-03  1.71010E+06
    80  2.28509E-04 -7.98619E+01 -7.98584E+01 -3.48227E-03 -1.65830E-05 -6.35534E-03  1.69548E+06
    81  2.34328E-04 -7.98585E+01 -7.98548E+01 -3.63055E-03 -1.70053E-05 -6.48439E-03  1.68090E+06
    82  2.40265E-04 -7.98550E+01 -7.98512E+01 -3.78401E-03 -1.74361E-05 -6.61496E-03  1.66637E+06
    83  2.46322E-04 -7.98514E+01 -7.98474E+01 -3.94283E-03 -1.78757E-05 -6.74706E-03  1.65190E+06
    84  2.52502E-04 -7.98477E+01 -7.98436E+01 -4.10716E-03 -1.83242E-05 -6.88071E-03  1.63748E+06
    85  2.58807E-04 -7.98440E+01 -7.98397E+01 -4.27718E-03 -1.87817E-05 -7.01596E-03  1.62312E+06
    86  2.65239E-04 -7.98402E+01 -7.98357E+01 -4.45307E-03 -1.92485E-05 -7.15275E-03  1.60883E+06
    87  2.71801E-04 -7.98363E+01 -7.98317E+01 -4.63500E-03 -1.97247E-05 -7.29114E-03  1.59460E+06
    88  2.78497E-04 -7.98324E+01 -7.98275E+01 -4.82317E-03 -2.02106E-05 -7.43111E-03  1.58044E+06
    89  2.85327E-04 -7.98283E+01 -7.98233E+01 -5.01777E-03 -2.07063E-05 -7.57270E-03  1.56635E+06
    90  2.92296E-04 -7.98242E+01 -7.98190E+01 -5.21900E-03 -2.12121E-05 -7.71589E-03  1.55233E+06
    91  2.99406E-04 -7.98200E+01 -7.98146E+01 -5.42707E-03 -2.17280E-05 -7.86070E-03  1.53839E+06
    92  3.06660E-04 -7.98158E+01 -7.98101E+01 -5.64217E-03 -2.22544E-05 -8.00714E-03  1.52452E+06
    93  3.14060E-04 -7.98114E+01 -7.98055E+01 -5.86454E-03 -2.27915E-05 -8.15519E-03  1.51072E+06
    94  3.21611E-04 -7.98070E+01 -7.98009E+01 -6.09439E-03 -2.33394E-05 -8.30488E-03  1.49701E+06
    95  3.29314E-04 -7.98025E+01 -7.97961E+01 -6.33194E-03 -2.38984E-05 -8.45619E-03  1.48337E+06
    96  3.37173E-04 -7.97978E+01 -7.97912E+01 -6.57745E-03 -2.44688E-05 -8.60914E-03  1.46981E+06
    97  3.45191E-04 -7.97931E+01 -7.97863E+01 -6.83114E-03 -2.50506E-05 -8.76371E-03  1.45633E+06
    98  3.53371E-04 -7.97883E+01 -7.97812E+01 -7.09326E-03 -2.56443E-05 -8.91988E-03  1.44293E+06
    99  3.61717E-04 -7.97835E+01 -7.97761E+01 -7.36407E-03 -2.62499E-05 -9.07770E-03  1.42961E+06
   100  3.70231E-04 -7.97785E+01 -7.97708E+01 -7.64384E-03 -2.68678E-05 -9.23709E-03  1.41637E+06
   101  3.78918E-04 -7.97734E+01 -7.97654E+01 -7.93282E-03 -2.74982E-05 -9.39809E-03  1.40321E+06
   102  3.87781E-04 -7.97682E+01 -7.97600E+01 -8.23130E-03 -2.81414E-05 -9.56065E-03  1.39013E+06
   103  3.96822E-04 -7.97629E+01 -7.97544E+01 -8.53956E-03 -2.87976E-05 -9.72476E-03  1.37713E+06
   104  4.06047E-04 -7.97576E+01 -7.97487E+01 -8.85789E-03 -2.94670E-05 -9.89041E-03  1.36421E+06
   105  4.15459E-04 -7.97521E+01 -7.97428E+01 -9.18658E-03 -3.01500E-05 -1.00576E-02  1.35137E+06
   106  4.25061E-04 -7.97465E+01 -7.97369E+01 -9.52596E-03 -3.08468E-05 -1.02262E-02  1.33861E+06
   107  4.34857E-04 -7.97408E+01 -7.97309E+01 -9.87632E-03 -3.15578E-05 -1.03963E-02  1.32593E+06
   108  4.44851E-04 -7.97350E+01 -7.97247E+01 -1.02380E-02 -3.22831E-05 -1.05677E-02  1.31333E+06
   109  4.55048E-04 -7.97290E+01 -7.97184E+01 -1.06113E-02 -3.30230E-05 -1.07406E-02  1.30081E+06
   110  4.65451E-04 -7.97230E+01 -7.97120E+01 -1.09966E-02 -3.37780E-05 -1.09147E-02  1.28836E+06
   111  4.76064E-04 -7.97168E+01 -7.97054E+01 -1.13943E-02 -3.45482E-05 -1.10901E-02  1.27600E+06
   112  4.86893E-04 -7.97106E+01 -7.96987E+01 -1.18046E-02 -3.53340E-05 -1.12667E-02  1.26371E+06
   113  4.97940E-04 -7.97042E+01 -7.96919E+01 -1.22280E-02 -3.61357E-05 -1.14444E-02  1.25150E+06
   114  5.09211E-04 -7.96977E+01 -7.96850E+01 -1.26648E-02 -3.69536E-05 -1.16233E-02  1.23937E+06
   115  5.20710E-04 -7.96910E+01 -7.96779E+01 -1.31154E-02 -3.77881E-05 -1.18033E-02  1.22731E+06
   116  5.32441E-04 -7.96842E+01 -7.96706E+01 -1.35802E-02 -3.86395E-05 -1.19843E-02  1.21533E+06
   117  5.44410E-04 -7.96773E+01 -7.96632E+01 -1.40597E-02 -3.95081E-05 -1.21663E-02  1.20342E+06
   118  5.56621E-04 -7.96703E+01 -7.96557E+01 -1.45541E-02 -4.03942E-05 -1.23491E-02  1.19158E+06
   119  5.69079E-04 -7.96631E+01 -7.96480E+01 -1.50640E-02 -4.12983E-05 -1.25327E-02  1.17982E+06
   120  5.81789E-04 -7.96558E+01 -7.96402E+01 -1.55898E-02 -4.22207E-05 -1.27170E-02  1.16814E+06
   121  5.94757E-04 -7.96484E+01 -7.96322E+01 -1.61319E-02 -4.31618E-05 -1.29019E-02  1.15652E+06
   122  6.07986E-04 -7.96408E+01 -7.96240E+01 -1.66908E-02 -4.41218E-05 -1.30873E-02  1.14498E+06
   123  6.21484E-04 -7.96330E+01 -7.96157E+01 -1.72669E-02 -4.51014E-05 -1.32730E-02  1.13350E+06
   124  6.35254E-04 -7.96251E+01 -7.96072E+01 -1.78607E-02 -4.61007E-05 -1.34590E-02  1.12210E+06
   125  6.49303E-04 -7.96171E+01 -7.95986E+01 -1.84728E-02 -4.71202E-05 -1.36450E-02  1.11077E+06
   126  6.63637E-04 -7.96089E+01 -7.95898E+01 -1.91035E-02 -4.81604E-05 -1.38309E-02  1.09950E+06
   127  6.78260E-04 -7.96006E+01 -7.95807E+01 -1.97533E-02 -4.92216E-05 -1.40166E-02  1.08830E+06
   128  6.93179E-04 -7.95920E+01 -7.95716E+01 -2.04229E-02 -5.03043E-05 -1.42018E-02  1.07717E+06
   129  7.08401E-04 -7.95834E+01 -7.95622E+01 -2.11128E-02 -5.14089E-05 -1.43864E-02  1.06611E+06
   130  7.23930E-04 -7.95745E+01 -7.95526E+01 -2.18234E-02 -5.25359E-05 -1.45701E-02  1.05511E+06
   131  7.39773E-04 -7.95655E+01 -7.95429E+01 -2.25553E-02 -5.36856E-05 -1.47527E-02  1.04418E+06
   132  7.55937E-04 -7.95563E+01 -7.95330E+01 -2.33091E-02 -5.48586E-05 -1.49339E-02  1.03331E+06
   133  7.72428E-04 -7.95470E+01 -7.95228E+01 -2.40853E-02 -5.60554E-05 -1.51134E-02  1.02251E+06
   134  7.89252E-04 -7.95374E+01 -7.95125E+01 -2.48846E-02 -5.72764E-05 -1.52910E-02  1.01176E+06
   135  8.06417E-04 -7.95277E+01 -7.95019E+01 -2.57075E-02 -5.85220E-05 -1.54662E-02  1.00108E+06
   136  8.23929E-04 -7.95178E+01 -7.94912E+01 -2.65546E-02 -5.97929E-05 -1.56387E-02  9.90467E+05
   137  8.41796E-04 -7.95077E+01 -7.94802E+01 -2.74266E-02 -6.10895E-05 -1.58081E-02  9.79910E+05
   138  8.60024E-04 -7.94974E+01 -7.94690E+01 -2.83240E-02 -6.24123E-05 -1.59740E-02  9.69414E+05
   139  8.78620E-04 -7.94869E+01 -7.94576E+01 -2.92475E-02 -6.37619E-05 -1.61356E-02  9.58977E+05
   140  8.97594E-04 -7.94762E+01 -7.94459E+01 -3.01978E-02 -6.51387E-05 -1.62927E-02  9.48600E+05
   141  9.16950E-04 -7.94653E+01 -7.94341E+01 -3.11755E-02 -6.65435E-05 -1.64447E-02  9.38280E+05
   142  9.36699E-04 -7.94542E+01 -7.94220E+01 -3.21812E-02 -6.79766E-05 -1.65909E-02  9.28019E+05
   143  9.56847E-04 -7.94429E+01 -7.94096E+01 -3.32157E-02 -6.94388E-05 -1.67304E-02  9.17815E+05
   144  9.77403E-04 -7.94314E+01 -7.93970E+01 -3.42796E-02 -7.09305E-05 -1.68627E-02  9.07667E+05
   145  9.98375E-04 -7.94196E+01 -7.93842E+01 -3.53736E-02 -7.24525E-05 -1.69867E-02  8.97575E+05
   146  1.01977E-03 -7.94076E+01 -7.93711E+01 -3.64985E-02 -7.40052E-05 -1.71016E-02  8.87538E+05
   147  1.04160E-03 -7.93954E+01 -7.93577E+01 -3.76549E-02 -7.55893E-05 -1.72063E-02  8.77556E+05
   148  1.06387E-03 -7.93830E+01 -7.93441E+01 -3.88436E-02 -7.72055E-05 -1.72996E-02  8.67629E+05
   149  1.08659E-03 -7.93703E+01 -7.93302E+01 -4.00653E-02 -7.88544E-05 -1.73802E-02  8.57755E+05
   150  1.10977E-03 -7.93574E+01 -7.93160E+01 -4.13208E-02 -8.05366E-05 -1.74467E-02  8.47934E+05
   151  1.13342E-03 -7.93443E+01 -7.93016E+01 -4.26108E-02 -8.22529E-05 -1.74975E-02  8.38166E+05
   152  1.15755E-03 -7.93309E+01 -7.92868E+01 -4.39360E-02 -8.40038E-05 -1.75305E-02  8.28450E+05
   153  1.18217E-03 -7.93172E+01 -7.92718E+01 -4.52972E-02 -8.57903E-05 -1.75440E-02  8.18785E+05
   154  1.20728E-03 -7.93033E+01 -7.92565E+01 -4.66953E-02 -8.76128E-05 -1.75357E-02  8.09172E+05
   155  1.23290E-03 -7.92891E+01 -7.92409E+01 -4.81309E-02 -8.94723E-05 -1.75027E-02  7.99609E+05
   156  1.25904E-03 -7.92746E+01 -7.92249E+01 -4.96048E-02 -9.13693E-05 -1.74423E-02  7.90096E+05
   157  1.28571E-03 -7.92599E+01 -7.92087E+01 -5.11179E-02 -9.33047E-05 -1.73511E-02  7.80633E+05
   158  1.31292E-03 -7.92449E+01 -7.91921E+01 -5.26709E-02 -9.52793E-05 -1.72251E-02  7.71220E+05
   159  1.34068E-03 -7.92296E+01 -7.91752E+01 -5.42646E-02 -9.72939E-05 -1.70600E-02  7.61855E+05
   160  1.36900E-03 -7.92140E+01 -7.91580E+01 -5.58998E-02 -9.93492E-05 -1.68504E-02  7.52539E+05
   161  1.39790E-03 -7.91981E+01 -7.91405E+01 -5.75774E-02 -1.01446E-04 -1.65905E-02  7.43271E+05
   162  1.42738E-03 -7.91820E+01 -7.91226E+01 -5.92980E-02 -1.03585E-04 -1.62731E-02  7.34051E+05
   163  1.45745E-03 -7.91655E+01 -7.91043E+01 -6.10625E-02 -1.05768E-04 -1.58897E-02  7.24878E+05
   164  1.48814E-03 -7.91487E+01 -7.90857E+01 -6.28717E-02 -1.07995E-04 -1.54304E-02  7.15753E+05
   165  1.51944E-03 -7.91316E+01 -7.90667E+01 -6.47263E-02 -1.10266E-04 -1.48994E-02  7.06674E+05
   166  1.55138E-03 -7.91141E+01 -7.90474E+01 -6.66272E-02 -1.12584E-04 -1.42548E-02  6.97642E+05
   167  1.58396E-03 -7.90963E+01 -7.90277E+01 -6.85751E-02 -1.14949E-04 -1.34565E-02  6.88656E+05
   168  1.61721E-03 -7.90782E+01 -7.90076E+01 -7.05708E-02 -1.17361E-04 -1.25356E-02  6.79716E+05
   169  1.65112E-03 -7.90598E+01 -7.89871E+01 -7.26151E-02 -1.19823E-04 -1.16091E-02  6.70822E+05
   170  1.68572E-03 -7.90410E+01 -7.89662E+01 -7.47087E-02 -1.22334E-04 -1.09068E-02  6.61974E+05
   171  1.72103E-03 -7.90218E+01 -7.89449E+01 -7.68523E-02 -1.24896E-04 -1.02540E-02  6.53171E+05
   172  1.75704E-03 -7.90023E+01 -7.89231E+01 -7.90468E-02 -1.27509E-04 -9.62134E-03  6.44413E+05
   173  1.79379E-03 -7.89824E+01 -7.89010E+01 -8.12927E-02 -1.30176E-04 -8.99747E-03  6.35700E+05
   174  1.83127E-03 -7.89622E+01 -7.88785E+01 -8.35907E-02 -1.32896E-04 -8.37738E-03  6.27033E+05
   175  1.86952E-03 -7.89415E+01 -7.88555E+01 -8.59417E-02 -1.35672E-04 -7.75953E-03  6.18410E+05
   176  1.90854E-03 -7.89205E+01 -7.88320E+01 -8.83461E-02 -1.38504E-04 -7.14424E-03  6.09831E+05
   177  1.94835E-03 -7.88991E+01 -7.88081E+01 -9.08047E-02 -1.41393E-04 -6.53298E-03  6.01298E+05
   178  1.98897E-03 -7.88772E+01 -7.87838E+01 -9.33180E-02 -1.44340E-04 -5.92809E-03  5.92809E+05
   179  2.03040E-03 -7.88550E+01 -7.87590E+01 -9.58866E-02 -1.47347E-04 -5.33218E-03  5.84364E+05
   180  2.07268E-03 -7.88323E+01 -7.87337E+01 -9.85111E-02 -1.50415E-04 -4.74835E-03  5.75964E+05
   181  2.11581E-03 -7.88092E+01 -7.87079E+01 -1.01192E-01 -1.53545E-04 -4.17986E-03  5.67609E+05
   182  2.15981E-03 -7.87857E+01 -7.86816E+01 -1.03930E-01 -1.56738E-04 -3.63021E-03  5.59298E+05
   183  2.20470E-03 -7.87617E+01 -7.86549E+01 -1.06725E-01 -1.59996E-04 -3.10302E-03  5.51031E+05
   184  2.25050E-03 -7.87373E+01 -7.86276E+01 -1.09577E-01 -1.63320E-04 -2.60211E-03  5.42810E+05
   185  2.29723E-03 -7.87124E+01 -7.85998E+01 -1.12488E-01 -1.66711E-04 -2.13144E-03  5.34633E+05
   186  2.34490E-03 -7.86871E+01 -7.85715E+01 -1.15457E-01 -1.70170E-04 -1.69516E-03  5.26501E+05
   187  2.39354E-03 -7.86612E+01 -7.85426E+01 -1.18485E-01 -1.73700E-04 -1.29761E-03  5.18414E+05
   188  2.44316E-03 -7.86349E+01 -7.85132E+01 -1.21571E-01 -1.77301E-04 -9.43375E-04  5.10372E+05
   189  2.49378E-03 -7.86081E+01 -7.84832E+01 -1.24716E-01 -1.80975E-04 -6.37292E-04  5.02376E+05
   190  2.54543E-03 -7.85808E+01 -7.84527E+01 -1.27921E-01 -1.84723E-04 -3.84497E-04  4.94425E+05
   191  2.59813E-03 -7.85530E+01 -7.84216E+01 -1.31184E-01 -1.88547E-04 -1.90471E-04  4.86520E+05
   192  2.65189E-03 -7.85246E+01 -7.83899E+01 -1.34507E-01 -1.92448E-04 -6.10964E-05  4.78661E+05
   193  2.70673E-03 -7.84957E+01 -7.83576E+01 -1.37888E-01 -1.96429E-04 -2.71524E-06  4.70848E+05
   194  2.76269E-03 -7.84663E+01 -7.83247E+01 -1.41328E-01 -2.00489E-04 -0.00000E+00  4.63082E+05
   195  2.81978E-03 -7.84363E+01 -7.82912E+01 -1.44826E-01 -2.04632E-04 -0.00000E+00  4.55363E+05
   196  2.87802E-03 -7.84057E+01 -7.82571E+01 -1.48383E-01 -2.08859E-04 -0.00000E+00  4.47691E+05
   197  2.93744E-03 -7.83746E+01 -7.82224E+01 -1.51997E-01 -2.13171E-04 -0.00000E+00  4.40067E+05
   198  2.99806E-03 -7.83429E+01 -7.81870E+01 -1.55668E-01 -2.17570E-04 -0.00000E+00  4.32491E+05
   199  3.05991E-03 -7.83105E+01 -7.81509E+01 -1.59395E-01 -2.22059E-04 -0.00000E+00  4.24963E+05
   200  3.12301E-03 -7.82776E+01 -7.81142E+01 -1.63179E-01 -2.26638E-04 -0.00000E+00  4.17484E+05
